P[kPa] x1 y1
3.77 0 0
5.05 0.0199 0.2671
6.15 0.0399 0.4090
7.22 0.0601 0.5061
8.29 0.0799 0.5783
10.60 0.1192 0.6847
12.16 0.1694 0.7346
14.07 0.2294 0.7822
15.62 0.2891 0.8133
16.81 0.3495 0.8343
17.91 0.4090 0.8524
18.77 0.4708 0.8659
19.51 0.5296 0.8774
20.23 0.5902 0.8890
20.71 0.6505 0.8974
21.35 0.7101 0.9093
21.92 0.7685 0.9209
22.62 0.8300 0.9372
23.20 0.8803 0.9521
23.59 0.9179 0.9637
23.80 0.9397 0.9709
23.99 0.9581 0.9785
24.19 0.9804 0.9885
24.36 1 1