x P[kPa] y
0 50.69 0
0.0316 52.37 0.0592
0.1067 53.95 0.1597
0.1899 55.83 0.2426
0.3393 56.73 0.2990
0.4303 56.10 0.3317
0.6225 53.75 0.4030
0.6649 52.74 0.4334
0.7352 50.52 0.4902
0.8124 47.49 0.5284
0.8525 45.52 0.6058
0.9091 41.41 0.6677
0.9542 36.75 0.7751
0.9820 32.49 0.8956
1 29.34 1